# wavelength wavelength_err transit_depth transit_depth_err
2.770424e+00	1.304093e-01	2.210203e+04	2.870724e+02
2.651869e+00	1.067011e-01	2.199702e+04	2.490435e+02
2.553384e+00	9.026970e-02	2.170398e+04	2.327986e+02
2.468754e+00	7.898953e-02	2.167092e+04	2.058999e+02
2.394858e+00	6.880193e-02	2.157687e+04	2.085517e+02
2.329621e+00	6.167152e-02	2.131524e+04	1.902052e+02
2.270995e+00	5.558123e-02	2.119631e+04	1.967484e+02
2.218440e+00	4.952812e-02	2.091527e+04	2.112293e+02
2.170440e+00	4.647213e-02	2.109124e+04	1.973645e+02
2.125981e+00	4.244587e-02	2.107641e+04	1.816899e+02
2.085047e+00	3.942325e-02	2.127979e+04	1.638305e+02
2.047620e+00	3.543060e-02	2.151734e+04	1.536666e+02
2.013195e+00	3.341830e-02	2.174247e+04	1.431940e+02
1.980779e+00	3.141387e-02	2.132706e+04	1.806937e+02
1.949874e+00	3.039604e-02	2.181295e+04	1.411097e+02
1.920475e+00	2.840317e-02	2.171155e+04	1.311707e+02
1.893065e+00	2.641650e-02	2.155039e+04	1.270946e+02
1.867150e+00	2.541286e-02	2.197967e+04	1.428885e+02
1.842238e+00	2.441195e-02	2.179469e+04	1.204919e+02
1.818325e+00	2.341391e-02	2.156147e+04	1.131073e+02
1.795896e+00	2.144416e-02	2.156800e+04	1.124250e+02
1.774947e+00	2.045291e-02	2.143856e+04	1.429857e+02
1.754989e+00	1.946393e-02	2.153315e+04	1.086321e+02
1.736018e+00	1.847709e-02	2.140311e+04	1.056570e+02
1.718034e+00	1.749240e-02	2.118124e+04	1.145831e+02
1.700547e+00	1.748060e-02	2.118461e+04	1.029986e+02
1.683558e+00	1.649853e-02	2.123775e+04	1.062777e+02
1.667064e+00	1.648792e-02	2.108978e+04	1.010014e+02
1.651066e+00	1.550835e-02	2.121387e+04	1.001878e+02
1.636047e+00	1.453069e-02	2.133348e+04	9.921152e+01
1.621520e+00	1.452235e-02	2.142059e+04	9.300404e+01
1.607002e+00	1.451412e-02	2.128322e+04	9.760965e+01
1.592975e+00	1.353920e-02	2.125261e+04	1.005849e+02
1.579440e+00	1.353193e-02	2.143929e+04	1.072915e+02
1.566394e+00	1.255904e-02	2.155515e+04	9.569206e+01
1.553838e+00	1.255284e-02	2.146039e+04	9.851988e+01
1.541289e+00	1.254664e-02	2.142458e+04	9.818619e+01
1.529227e+00	1.157602e-02	2.151535e+04	9.223980e+01
1.517654e+00	1.157089e-02	2.151840e+04	9.770806e+01
1.506086e+00	1.156553e-02	2.164023e+04	9.914282e+01
1.494523e+00	1.156040e-02	2.147833e+04	8.721925e+01
1.482965e+00	1.155516e-02	2.182132e+04	8.899872e+01
1.471893e+00	1.058751e-02	2.173742e+04	8.875975e+01
1.461308e+00	1.058322e-02	2.177426e+04	9.086260e+01
1.450727e+00	1.057881e-02	2.183165e+04	9.165855e+01
1.440631e+00	9.613304e-03	2.188117e+04	9.368653e+01
1.431019e+00	9.609728e-03	2.201672e+04	8.972779e+01
1.421412e+00	9.606033e-03	2.195551e+04	8.995889e+01
1.411807e+00	9.602457e-03	2.183613e+04	8.852474e+01
1.402207e+00	9.598762e-03	2.197965e+04	8.502429e+01
1.393089e+00	8.635882e-03	2.165522e+04	9.036418e+01
1.384455e+00	8.632902e-03	2.190143e+04	9.137432e+01
1.375824e+00	8.630041e-03	2.193059e+04	8.921604e+01
1.367195e+00	8.627180e-03	2.175436e+04	9.466720e+01
1.358569e+00	8.624200e-03	2.189842e+04	8.621779e+01
1.349947e+00	8.621220e-03	2.180955e+04	9.080159e+01
1.341327e+00	8.618360e-03	2.180083e+04	8.805620e+01
1.332710e+00	8.615499e-03	2.173141e+04	8.898577e+01
1.324574e+00	7.655718e-03	2.159154e+04	9.262102e+01
1.316920e+00	7.653573e-03	2.145310e+04	9.105017e+01
1.309267e+00	7.651189e-03	2.134500e+04	8.566699e+01
1.301617e+00	7.648805e-03	2.119288e+04	8.511923e+01
1.293969e+00	7.646659e-03	2.136796e+04	8.834492e+01
1.286324e+00	7.644394e-03	2.119534e+04	8.290796e+01
1.278681e+00	7.642010e-03	2.127752e+04	8.965422e+01
1.271040e+00	7.639865e-03	2.117564e+04	8.406865e+01
1.263401e+00	7.637481e-03	2.119554e+04	8.145323e+01
1.255765e+00	7.635216e-03	2.123091e+04	8.295535e+01
1.248131e+00	7.632951e-03	2.139529e+04	8.057647e+01
1.240499e+00	7.630806e-03	2.133058e+04	8.470526e+01
1.232869e+00	7.628422e-03	2.138458e+04	7.923186e+01
1.225242e+00	7.626276e-03	2.153508e+04	7.873740e+01
1.217617e+00	7.623892e-03	2.149102e+04	8.028610e+01
1.209994e+00	7.621747e-03	2.124032e+04	2.760405e+02
1.202373e+00	7.619482e-03	2.155641e+04	8.351773e+01
1.195231e+00	6.665184e-03	2.143598e+04	8.874256e+01
1.188567e+00	6.663516e-03	2.133100e+04	8.227298e+01
1.181904e+00	6.661728e-03	2.155171e+04	8.379103e+01
1.175243e+00	6.660059e-03	2.154258e+04	8.440785e+01
1.168584e+00	6.658390e-03	2.162597e+04	8.554740e+01
1.161926e+00	6.656721e-03	2.144914e+04	8.692671e+01
1.155271e+00	6.654933e-03	2.144801e+04	8.252033e+01
1.148616e+00	6.653265e-03	2.157915e+04	8.732001e+01
1.141964e+00	6.651596e-03	2.167514e+04	8.306867e+01
1.135313e+00	6.649927e-03	2.175732e+04	8.662610e+01
1.128664e+00	6.648139e-03	2.161541e+04	8.635137e+01
1.122017e+00	6.646589e-03	2.166304e+04	9.174461e+01
1.115371e+00	6.644801e-03	2.167399e+04	8.723481e+01
1.108727e+00	6.643133e-03	2.158452e+04	8.900492e+01
1.101611e+00	7.590159e-03	2.154998e+04	8.761529e+01
1.094021e+00	7.588014e-03	2.147810e+04	8.931563e+01
1.086435e+00	7.585749e-03	2.163907e+04	8.808152e+01
1.078850e+00	7.583723e-03	2.154249e+04	8.828639e+01
1.071267e+00	7.581458e-03	2.131401e+04	8.418522e+01
1.063687e+00	7.579312e-03	2.131582e+04	8.616104e+01
1.056109e+00	7.577048e-03	2.147073e+04	8.716289e+01
1.048533e+00	7.575021e-03	2.125007e+04	9.143827e+01
1.040959e+00	7.572876e-03	2.121049e+04	8.827977e+01
1.033387e+00	7.570849e-03	2.142069e+04	9.265471e+01
1.025817e+00	7.568585e-03	2.126937e+04	2.799549e+02
1.018250e+00	7.566439e-03	2.129596e+04	8.820538e+01
1.010684e+00	7.564413e-03	2.137090e+04	9.319076e+01
1.003121e+00	7.562327e-03	2.142766e+04	1.021163e+02
9.955596e-01	7.560181e-03	2.135913e+04	9.077031e+01
9.875281e-01	8.502738e-03	2.107284e+04	1.069145e+02
9.790267e-01	8.500116e-03	2.100756e+04	1.423870e+02
9.705279e-01	8.497434e-03	2.140724e+04	9.569711e+01
9.620318e-01	8.494871e-03	2.155519e+04	9.506186e+01
9.535382e-01	8.492248e-03	2.149285e+04	1.023689e+02
9.450472e-01	8.489686e-03	2.138677e+04	3.232142e+02
9.360874e-01	9.429978e-03	2.155770e+04	9.404219e+01
9.266590e-01	9.426759e-03	2.174757e+04	1.000939e+02
9.172338e-01	9.423660e-03	2.155632e+04	9.488121e+01
9.078117e-01	9.420561e-03	2.156014e+04	9.752801e+01
8.983927e-01	9.417402e-03	2.184030e+04	1.972881e+02
8.885062e-01	1.035561e-02	2.158771e+04	1.006691e+02
8.781525e-01	1.035191e-02	2.139500e+04	1.081986e+02
8.678024e-01	1.034822e-02	2.150202e+04	1.072880e+02
8.569859e-01	1.128476e-02	2.147227e+04	1.122017e+02
8.447635e-01	1.316015e-02	2.130299e+04	2.986659e+02
